freq,Wk,Wd
0.0,0.0,0.0
0.1,31.2,62.4
0.125,48.6,97.3
0.16,79,158
0.2,121,243
0.25,182,365
0.315,263,530
0.4,352,713
0.5,418,853
0.63,459,944
0.8,477,992
1,482,1011
1.25,484,1008
1.6,494,968
2,531,890
2.5,631,776
3.15,804,642
4,967,512
5,1039,409
6.3,1054,323
8,1036,253
10,988,212
12.5,902,161
16,768,125
20,636,100
25,513,80
31.5,405,63.2
40,314,49.4
50,246,38.8
63,186,29.5
80,132,21.1
100,88.7,14.1
125,54,8.63
160,28.5,4.55
200,15.2,2.43
250,7.9,1.26
315,3.98,0.64
400,1.95,0.31
